#x	Phi [cm^3/s]
0.0001	1.44442e-20
0.000158489	2.94826e-20
0.000251189	4.37445e-20
0.000398107	6.27477e-20
0.000630957	1.51631e-19
0.001	1.75403e-19
0.00158489	2.81651e-19
0.00251189	4.35201e-19
0.00398107	6.18311e-19
0.00630957	7.75518e-19
0.01	1.00345e-18
0.0158489	1.1509e-18
0.0251189	1.25887e-18
0.0398107	1.2465e-18
0.0630957	1.03592e-18
0.1	7.4846e-19
0.158489	4.33624e-19
0.251189	1.64089e-19
0.398107	3.89234e-20
0.630957	1.07822e-21
