#x	Phi [cm^3/s]
0.0001	5.04292e-20
0.000158489	7.64058e-20
0.000251189	1.30369e-19
0.000398107	1.97428e-19
0.000630957	2.96955e-19
0.001	5.20237e-19
0.00158489	7.3636e-19
0.00251189	1.002e-18
0.00398107	1.44814e-18
0.00630957	1.81523e-18
0.01	2.19794e-18
0.0158489	2.59874e-18
0.0251189	2.68485e-18
0.0398107	2.44747e-18
0.0630957	1.87667e-18
0.1	1.32116e-18
0.158489	7.54868e-19
0.251189	2.06286e-19
0.398107	4.32465e-20
0.630957	2.22899e-21
