#x	Phi [cm^3/s]
0.0001	4.33606e-20
0.000158489	6.45069e-20
0.000251189	9.7126e-20
0.000398107	1.6168e-19
0.000630957	2.54994e-19
0.001	3.74996e-19
0.00158489	6.00475e-19
0.00251189	7.89724e-19
0.00398107	1.01611e-18
0.00630957	1.40112e-18
0.01	1.73592e-18
0.0158489	1.97211e-18
0.0251189	2.00453e-18
0.0398107	1.69027e-18
0.0630957	1.41412e-18
0.1	9.4737e-19
0.158489	4.74799e-19
0.251189	1.65515e-19
0.398107	3.37386e-20
0.630957	6.23148e-21
