#x	Phi [cm^3/s]
0.0001	1.07756e-20
0.000158489	2.32743e-20
0.000251189	4.548e-20
0.000398107	6.43181e-20
0.000630957	1.11637e-19
0.001	1.66129e-19
0.00158489	2.57454e-19
0.00251189	4.34006e-19
0.00398107	6.49082e-19
0.00630957	9.35972e-19
0.01	1.22273e-18
0.0158489	1.59171e-18
0.0251189	2.06681e-18
0.0398107	2.23847e-18
0.0630957	2.33187e-18
0.1	1.83093e-18
0.158489	1.41371e-18
0.251189	7.84473e-19
0.398107	2.65253e-19
0.630957	4.53239e-20
