#x	Phi [cm^3/s]
0.0001	1.6125e-20
0.000158489	2.37457e-20
0.000251189	4.6249e-20
0.000398107	6.49285e-20
0.000630957	1.04227e-19
0.001	1.50204e-19
0.00158489	2.63198e-19
0.00251189	4.16073e-19
0.00398107	6.09873e-19
0.00630957	7.99748e-19
0.01	1.11751e-18
0.0158489	1.52033e-18
0.0251189	1.83137e-18
0.0398107	2.0221e-18
0.0630957	1.9959e-18
0.1	1.67982e-18
0.158489	1.25193e-18
0.251189	6.67789e-19
0.398107	2.19124e-19
0.630957	2.67539e-20
