#x	Phi [cm^3/s]
0.0001	4.13955e-20
0.000158489	7.94624e-20
0.000251189	1.14779e-19
0.000398107	1.92014e-19
0.000630957	3.238e-19
0.001	3.93729e-19
0.00158489	6.78548e-19
0.00251189	9.22148e-19
0.00398107	1.27351e-18
0.00630957	1.72647e-18
0.01	1.96585e-18
0.0158489	2.30697e-18
0.0251189	2.4523e-18
0.0398107	2.23145e-18
0.0630957	1.68616e-18
0.1	1.09629e-18
0.158489	6.43781e-19
0.251189	1.78541e-19
0.398107	2.11241e-20
0.630957	1.75088e-22
