#x	Phi [cm^3/s]
0.0001	4.44635e-20
0.000158489	5.67199e-20
0.000251189	7.76205e-20
0.000398107	1.63056e-19
0.000630957	2.53914e-19
0.001	3.97566e-19
0.00158489	6.36716e-19
0.00251189	8.19021e-19
0.00398107	1.06246e-18
0.00630957	1.33331e-18
0.01	1.77746e-18
0.0158489	1.98678e-18
0.0251189	2.29208e-18
0.0398107	2.02866e-18
0.0630957	1.50916e-18
0.1	9.72222e-19
0.158489	5.17447e-19
0.251189	1.55079e-19
0.398107	2.72278e-20
0.630957	8.1906e-21
