#x	Phi [cm^3/s]
0.0001	5.50255e-20
0.000158489	9.43083e-20
0.000251189	1.29241e-19
0.000398107	1.97154e-19
0.000630957	2.983e-19
0.001	5.36873e-19
0.00158489	7.47101e-19
0.00251189	1.08769e-18
0.00398107	1.41417e-18
0.00630957	1.8763e-18
0.01	2.45013e-18
0.0158489	2.65307e-18
0.0251189	2.76899e-18
0.0398107	2.59578e-18
0.0630957	1.99446e-18
0.1	1.3974e-18
0.158489	5.96267e-19
0.251189	2.06286e-19
0.398107	3.30564e-20
0.630957	6.58751e-22
